Wavelength (µm) Transit Depth (Rp^2/Rs^2)
0.602495 0.005597 0.005613 0.000104
0.606911 0.005597 0.005751 0.000101
0.611414 0.005596 0.005633 0.000099
0.616008 0.005595 0.005666 0.000100
0.620706 0.005593 0.005830 0.000104
0.625514 0.005592 0.005483 0.000103
0.630423 0.005591 0.005346 0.000097
0.635438 0.005590 0.005567 0.000090
0.640564 0.005589 0.005446 0.000084
0.645804 0.005588 0.005634 0.000078
0.651162 0.005587 0.005681 0.000074
0.656643 0.005586 0.005711 0.000071
0.662251 0.005585 0.005462 0.000068
0.667991 0.005583 0.005559 0.000067
0.673865 0.005582 0.005467 0.000067
0.679877 0.005581 0.005603 0.000066
0.686033 0.005579 0.005650 0.000063
0.692336 0.005578 0.005637 0.000060
0.698805 0.005577 0.005538 0.000055
0.705435 0.005575 0.005557 0.000051
0.712225 0.005574 0.005638 0.000049
0.719180 0.005573 0.005598 0.000047
0.726317 0.005572 0.005620 0.000042
0.733644 0.005570 0.005575 0.000038
0.741148 0.005568 0.005570 0.000036
0.748855 0.005566 0.005576 0.000034
0.756764 0.005565 0.005592 0.000034
0.764875 0.005563 0.005559 0.000034
0.773211 0.005563 0.005553 0.000034
0.781762 0.005565 0.005553 0.000033
0.790544 0.005563 0.005553 0.000032
0.799568 0.005561 0.005575 0.000031
0.808827 0.005562 0.005591 0.000030
0.818342 0.005563 0.005587 0.000029
0.828121 0.005558 0.005584 0.000029
0.838163 0.005554 0.005611 0.000029
0.848477 0.005554 0.005547 0.000029
0.859072 0.005548 0.005580 0.000029
0.869955 0.005548 0.005559 0.000028
0.881135 0.005540 0.005526 0.000027
0.892616 0.005541 0.005517 0.000026
0.904406 0.005545 0.005550 0.000026
0.916508 0.005545 0.005528 0.000025
0.928926 0.005545 0.005528 0.000025
0.941680 0.005548 0.005543 0.000024
0.954758 0.005546 0.005548 0.000024
0.968166 0.005540 0.005587 0.000023
0.981916 0.005535 0.005532 0.000023
0.995998 0.005526 0.005581 0.000022
1.010422 0.005524 0.005499 0.000022
1.025187 0.005524 0.005534 0.000021
1.040286 0.005540 0.005562 0.000021
1.055720 0.005548 0.005541 0.000020
1.071490 0.005545 0.005552 0.000020
1.087588 0.005554 0.005578 0.000019
1.104007 0.005565 0.005567 0.000019
1.120740 0.005581 0.005587 0.000018
1.137778 0.005581 0.005577 0.000018
1.155116 0.005587 0.005570 0.000018
1.172740 0.005576 0.005576 0.000018
1.190638 0.005580 0.005588 0.000017
1.208796 0.005593 0.005586 0.000017
1.227204 0.005584 0.005603 0.000017
1.245846 0.005565 0.005547 0.000017
1.264705 0.005542 0.005546 0.000017
1.283770 0.005538 0.005561 0.000017
1.303020 0.005531 0.005568 0.000017
1.322446 0.005554 0.005509 0.000017
1.342024 0.005563 0.005565 0.000017
1.361743 0.005552 0.005531 0.000017
1.381585 0.005551 0.005578 0.000018
1.401535 0.005549 0.005561 0.000018
1.421579 0.005543 0.005565 0.000018
1.441700 0.005641 0.005627 0.000018
1.461884 0.005537 0.005569 0.000018
1.482118 0.005573 0.005573 0.000019
1.502389 0.005541 0.005533 0.000018
1.522683 0.005538 0.005559 0.000018
1.542990 0.005580 0.005602 0.000018
1.563298 0.005553 0.005573 0.000018
1.583596 0.005605 0.005599 0.000018
1.603875 0.005643 0.005603 0.000018
1.624126 0.005567 0.005577 0.000019
1.644340 0.005595 0.005590 0.000019
1.664510 0.005555 0.005563 0.000019
1.684628 0.005544 0.005541 0.000019
1.704689 0.005545 0.005537 0.000019
1.724685 0.005550 0.005532 0.000019
1.744613 0.005555 0.005545 0.000020
1.764467 0.005560 0.005581 0.000020
1.784242 0.005564 0.005583 0.000021
1.803936 0.005572 0.005594 0.000021
1.823542 0.005577 0.005587 0.000021
1.843062 0.005584 0.005582 0.000022
1.862489 0.005595 0.005571 0.000022
1.881822 0.005623 0.005576 0.000022
1.901060 0.005602 0.005621 0.000023
1.920201 0.005602 0.005592 0.000023
1.939242 0.005631 0.005660 0.000023
1.958183 0.005702 0.005722 0.000024
1.977023 0.005663 0.005633 0.000024
1.995762 0.005688 0.005726 0.000024
2.014396 0.005717 0.005736 0.000025
2.032928 0.005678 0.005692 0.000024
2.051358 0.005702 0.005730 0.000024
2.069683 0.005683 0.005646 0.000024
2.087906 0.005666 0.005674 0.000024
2.106026 0.005661 0.005618 0.000025
2.124042 0.005651 0.005643 0.000025
2.141955 0.005646 0.005679 0.000025
2.159767 0.005644 0.005610 0.000025
2.177478 0.005642 0.005652 0.000025
2.195086 0.005641 0.005613 0.000026
2.212593 0.005643 0.005675 0.000026
2.230001 0.005643 0.005623 0.000026
2.247310 0.005641 0.005642 0.000026
2.264521 0.005641 0.005652 0.000026
2.281634 0.005642 0.005614 0.000026
2.298650 0.005643 0.005668 0.000027
2.315570 0.005645 0.005648 0.000027
2.332394 0.005647 0.005634 0.000027
2.349124 0.005649 0.005654 0.000028
2.365762 0.005651 0.005616 0.000028
2.382306 0.005652 0.005701 0.000028
2.398760 0.005652 0.005651 0.000029
2.415122 0.005650 0.005646 0.000029
2.431395 0.005646 0.005587 0.000030
2.447580 0.005640 0.005615 0.000031
2.463677 0.005635 0.005634 0.000032
2.479687 0.005630 0.005649 0.000032
2.495611 0.005625 0.005706 0.000033
2.511449 0.005618 0.005578 0.000033
2.527205 0.005612 0.005632 0.000034
2.542877 0.005608 0.005632 0.000034
2.558468 0.005607 0.005516 0.000034
2.573978 0.005605 0.005602 0.000034
2.589407 0.005608 0.005671 0.000034
2.604757 0.005608 0.005672 0.000034
2.620028 0.005607 0.005596 0.000034
2.635223 0.005601 0.005600 0.000034
2.650341 0.005616 0.005576 0.000034
2.665383 0.005685 0.005673 0.000035
2.680350 0.005786 0.005805 0.000035
2.695244 0.005787 0.005752 0.000035
2.710064 0.005761 0.005756 0.000035
2.724811 0.005740 0.005699 0.000035
2.739489 0.005744 0.005738 0.000035
2.754095 0.005777 0.005824 0.000035
2.768630 0.005784 0.005770 0.000036
2.783098 0.005775 0.005751 0.000037
2.797497 0.005752 0.005785 0.000038
2.811829 0.005726 0.005771 0.000039
2.826095 0.005716 0.005684 0.000040
2.840293 0.005709 0.005728 0.000039
2.854428 0.005698 0.005688 0.000039
2.868497 0.005677 0.005689 0.000039
2.882504 0.005640 0.005682 0.000040
2.896446 0.005597 0.005581 0.000040
2.910327 0.005567 0.005561 0.000040
2.924147 0.005553 0.005476 0.000040
2.937905 0.005547 0.005524 0.000040
2.951604 0.005560 0.005576 0.000041
2.965242 0.005583 0.005679 0.000041
2.978822 0.005607 0.005715 0.000041
2.992344 0.005600 0.005589 0.000042
3.005808 0.005587 0.005584 0.000043
3.019216 0.005589 0.005562 0.000043
3.032566 0.005575 0.005583 0.000043
3.045861 0.005560 0.005612 0.000043
3.059101 0.005550 0.005615 0.000043
3.072286 0.005543 0.005612 0.000044
3.085418 0.005539 0.005546 0.000044
3.098495 0.005545 0.005580 0.000044
3.111520 0.005556 0.005485 0.000044
3.124493 0.005571 0.005583 0.000045
3.137413 0.005562 0.005543 0.000046
3.150283 0.005558 0.005539 0.000046
3.163102 0.005563 0.005563 0.000046
3.175870 0.005559 0.005496 0.000046
3.188590 0.005552 0.005574 0.000046
3.201260 0.005546 0.005547 0.000046
3.213881 0.005540 0.005522 0.000046
3.226454 0.005536 0.005513 0.000047
3.238980 0.005534 0.005581 0.000047
3.251458 0.005532 0.005498 0.000047
3.263889 0.005532 0.005467 0.000047
3.276274 0.005532 0.005571 0.000047
3.288614 0.005531 0.005457 0.000047
3.300907 0.005531 0.005428 0.000048
3.313156 0.005530 0.005464 0.000048
3.325360 0.005529 0.005548 0.000048
3.337521 0.005526 0.005563 0.000048
3.349638 0.005527 0.005567 0.000048
3.361711 0.005528 0.005556 0.000048
3.373741 0.005521 0.005573 0.000048
3.385729 0.005515 0.005484 0.000048
3.397676 0.005513 0.005511 0.000049
3.409581 0.005511 0.005486 0.000049
3.421443 0.005506 0.005468 0.000050
3.433265 0.005503 0.005479 0.000050
3.445047 0.005502 0.005463 0.000051
3.456789 0.005501 0.005382 0.000051
3.468490 0.005498 0.005535 0.000051
3.480153 0.005495 0.005503 0.000051
3.491777 0.005491 0.005508 0.000051
3.503361 0.005490 0.005477 0.000051
3.514907 0.005494 0.005524 0.000051
3.526415 0.005498 0.005537 0.000052
3.537885 0.005503 0.005556 0.000052
3.549318 0.005510 0.005591 0.000052
3.560715 0.005520 0.005507 0.000053
3.572074 0.005531 0.005541 0.000053
3.583397 0.005543 0.005526 0.000053
3.594684 0.005555 0.005569 0.000053
3.605935 0.005560 0.005647 0.000053
3.617150 0.005565 0.005610 0.000054
3.628331 0.005566 0.005462 0.000054
3.639477 0.005567 0.005619 0.000054
3.650587 0.005550 0.005545 0.000054
3.661664 0.005528 0.005568 0.000054
3.672707 0.005513 0.005523 0.000055
3.683716 0.005503 0.005425 0.000055
3.694691 0.005497 0.005427 0.000055
3.705633 0.005498 0.005454 0.000055
3.716542 0.005499 0.005416 0.000056
3.727419 0.005503 0.005523 0.000056
3.738263 0.005506 0.005501 0.000056
3.749075 0.005521 0.005640 0.000057
3.759856 0.005540 0.005515 0.000057
3.770604 0.005557 0.005539 0.000058
3.781321 0.005573 0.005493 0.000058
3.792008 0.005588 0.005583 0.000058
3.802663 0.005600 0.005592 0.000058
3.813288 0.005611 0.005703 0.000059
3.823882 0.005612 0.005599 0.000059
3.834446 0.005609 0.005566 0.000059
3.844980 0.005601 0.005685 0.000059
3.855485 0.005583 0.005589 0.000060
3.865960 0.005566 0.005640 0.000060
3.876406 0.005546 0.005592 0.000060
3.886822 0.005527 0.005504 0.000060
3.897210 0.005515 0.005393 0.000061
3.907569 0.005514 0.005589 0.000061
3.917900 0.005513 0.005521 0.000061
3.928203 0.005525 0.005504 0.000062
3.938478 0.005540 0.005574 0.000062
3.948726 0.005555 0.005454 0.000062
3.958945 0.005573 0.005620 0.000063
3.969136 0.005590 0.005605 0.000063
3.979301 0.005594 0.005532 0.000063
3.989439 0.005592 0.005501 0.000064
3.999550 0.005591 0.005539 0.000065
4.009635 0.005591 0.005629 0.000065
4.019694 0.005592 0.005598 0.000065
4.029725 0.005584 0.005500 0.000065
4.039731 0.005565 0.005540 0.000065
4.049711 0.005546 0.005620 0.000065
4.059665 0.005543 0.005574 0.000066
4.069595 0.005546 0.005559 0.000066
4.079498 0.005549 0.005579 0.000067
4.089376 0.005549 0.005557 0.000067
4.099230 0.005549 0.005576 0.000068
4.109059 0.005549 0.005467 0.000068
4.118863 0.005551 0.005451 0.000068
4.128642 0.005553 0.005667 0.000069
4.138398 0.005567 0.005556 0.000069
4.148129 0.005595 0.005486 0.000069
4.157836 0.005623 0.005550 0.000069
4.167520 0.005656 0.005639 0.000070
4.177179 0.005693 0.005797 0.000070
4.186816 0.005730 0.005725 0.000070
4.196429 0.005760 0.005796 0.000070
4.206018 0.005788 0.005834 0.000071
4.215585 0.005816 0.005946 0.000071
4.225129 0.005829 0.005787 0.000072
4.234651 0.005839 0.005750 0.000072
4.244149 0.005848 0.005832 0.000072
4.253624 0.005851 0.005881 0.000073
4.263079 0.005853 0.005943 0.000073
4.272510 0.005855 0.005796 0.000074
4.281919 0.005848 0.005790 0.000074
4.291307 0.005840 0.005856 0.000075
4.300673 0.005832 0.005871 0.000076
4.310017 0.005824 0.005791 0.000076
4.319340 0.005816 0.005862 0.000077
4.328642 0.005808 0.005972 0.000078
4.337922 0.005805 0.005730 0.000078
4.347181 0.005804 0.005613 0.000079
4.356420 0.005803 0.005841 0.000080
4.365637 0.005802 0.005881 0.000080
4.374833 0.005800 0.005855 0.000080
4.384009 0.005798 0.005754 0.000081
4.393165 0.005796 0.005802 0.000081
4.402300 0.005794 0.005928 0.000081
4.411415 0.005792 0.005752 0.000081
4.420510 0.005789 0.005799 0.000081
4.429585 0.005779 0.005679 0.000082
4.438641 0.005770 0.005700 0.000082
4.447676 0.005761 0.005773 0.000083
4.456692 0.005748 0.005853 0.000083
4.465689 0.005735 0.005668 0.000084
4.474665 0.005722 0.005615 0.000084
4.483623 0.005703 0.005597 0.000085
4.492562 0.005680 0.005684 0.000085
4.501481 0.005657 0.005614 0.000085
4.510382 0.005634 0.005619 0.000086
4.519263 0.005611 0.005685 0.000087
4.528126 0.005588 0.005564 0.000088
4.536971 0.005565 0.005427 0.000089
4.545796 0.005556 0.005581 0.000089
4.554604 0.005549 0.005544 0.000090
4.563393 0.005543 0.005451 0.000091
4.572163 0.005539 0.005613 0.000092
4.580917 0.005538 0.005659 0.000093
4.589651 0.005537 0.005601 0.000094
4.598368 0.005536 0.005577 0.000095
4.607067 0.005541 0.005457 0.000095
4.615748 0.005548 0.005500 0.000095
4.624412 0.005554 0.005475 0.000096
4.633058 0.005558 0.005564 0.000096
4.641687 0.005558 0.005478 0.000096
4.650298 0.005557 0.005528 0.000096
4.658893 0.005557 0.005618 0.000096
4.667469 0.005565 0.005790 0.000096
4.676029 0.005576 0.005668 0.000095
4.684573 0.005587 0.005506 0.000095
4.693099 0.005597 0.005722 0.000095
4.701609 0.005603 0.005640 0.000095
4.710101 0.005608 0.005685 0.000095
4.718578 0.005614 0.005610 0.000095
4.727036 0.005618 0.005521 0.000095
4.735480 0.005621 0.005543 0.000096
4.743906 0.005623 0.005570 0.000096
4.752317 0.005626 0.005740 0.000097
4.760711 0.005632 0.005558 0.000098
4.769089 0.005639 0.005645 0.000099
4.777451 0.005646 0.005719 0.000100
4.785798 0.005653 0.005522 0.000102
4.794128 0.005663 0.005611 0.000103
4.802443 0.005673 0.005680 0.000103
4.810742 0.005683 0.005703 0.000104
4.819026 0.005693 0.005662 0.000105
4.827293 0.005692 0.005594 0.000105
4.835546 0.005691 0.005615 0.000105
4.843783 0.005691 0.005593 0.000105
4.852005 0.005690 0.005787 0.000104
4.860211 0.005685 0.005382 0.000105
4.868403 0.005679 0.005635 0.000105
4.876579 0.005674 0.005765 0.000105
4.884741 0.005670 0.005701 0.000105
4.892887 0.005666 0.005571 0.000106
4.901019 0.005662 0.005655 0.000106
4.909135 0.005658 0.005779 0.000107
4.917238 0.005654 0.005571 0.000107
4.925324 0.005647 0.005690 0.000107
4.933398 0.005641 0.005714 0.000108
4.941456 0.005634 0.005488 0.000108
4.949501 0.005627 0.005534 0.000109
4.957529 0.005619 0.005761 0.000127
4.965545 0.005610 0.005398 0.000158
4.973546 0.005602 0.005294 0.000234
4.981533 0.005594 0.004499 0.001273
4.989506 0.005593 0.024472 0.179485
4.997465 0.005593 -539.488398 511.704272
5.005409 0.005593 654.474947 853.541426
5.013340 0.005593 -380.782279 784.441636
5.021258 0.005593 743.196647 806.617564
5.029161 0.005593 338.640963 818.345735
5.037051 0.005593 -181.379586 783.872302
5.044926 0.005593 -288.263827 892.204220
5.052789 0.005593 -2067.920295 1253.913073
5.060638 0.005593 -1479.713529 2057.567714
5.068473 0.005593 1623.806084 1394.709106
5.076296 0.005593 -33.748646 951.247793
5.084104 0.005593 -1282.167090 582.941249
5.091900 0.005593 1010.986409 504.987991
5.099682 0.005593 495.271102 523.311613
5.107451 0.005593 -544.736591 535.383973
5.115207 0.005593 550.525026 454.156966
5.122949 0.005593 318.583956 315.806960
5.130680 0.005593 121.413268 269.912682
5.138397 0.005593 -272.883826 247.509123
5.146101 0.005593 -524.844215 234.084285
5.153793 0.005593 -395.284769 224.630601
5.161471 0.005593 -177.605195 213.704556
5.169137 0.005593 354.276692 215.837142
5.176790 0.005593 110.538470 223.283952
5.184431 0.005593 -343.641978 231.011193
5.192060 0.005593 -101.752138 223.404667
5.199675 0.005593 -9.009457 228.715260
5.207279 0.005593 -491.697515 232.973840
5.214869 0.005593 137.650789 239.455184
5.222448 0.005593 223.128103 253.113623
5.230015 0.005593 -127.366006 266.634124
5.237568 0.005593 72.625836 280.954000
5.245111 0.005593 -251.521177 268.449868
5.252641 0.005593 -63.691019 243.906360
5.260158 0.005593 -626.614183 265.499260
5.267664 0.005593 62.138701 324.909529
5.275158 0.005593 283.577918 352.366423
5.282640 0.005593 -57.507782 322.805721
5.290111 0.005593 -49.130665 285.606313
5.297569 0.005593 -599.975423 309.120242
